1559595951670,1535
1559595951742,1804
1559595951813,1273
1559595951888,1495
1559595951960,1825
1559595952041,2054
1559595952124,1646
1559595952206,1479
1559595952290,1418
1559595952364,1653
1559595952436,1771
1559595952523,4095
1559595952596,1761
1559595952668,1612
1559595952752,1989
1559595952834,1865
1559595952906,1613
1559595952979,1951
1559595953050,1671
1559595953120,2061
1559595953188,1605
1559595953261,4095
1559595953342,1744
1559595953411,1651
1559595953484,1955
1559595953548,1557
1559595953622,1650
1559595953695,1712
1559595953761,1414
1559595953834,1807
1559595953907,1408
1559595953975,4095
1559595954049,1453
1559595954122,1737
1559595954194,2031
1559595954267,1492
1559595954351,1529
1559595954425,1565
1559595954512,1648
1559595954587,1651
1559595954659,1822
1559595954734,1430
1559595954806,1535
1559595954878,1936
1559595954951,2039
1559595955025,1611
1559595955095,1869
1559595955174,1866
1559595955248,1522
1559595955321,1837
1559595955393,1753
1559595955464,4095
1559595955541,1511
1559595955617,1845
1559595955703,1811
1559595955777,1840
1559595955848,1535
1559595955931,1682
1559595956007,1535
1559595956080,1793
1559595956153,1808
1559595956225,4095
1559595956300,1521
1559595956384,1652
1559595956474,1983
1559595956548,1535
1559595956625,1503
1559595956698,1714
1559595956772,1731
1559595956846,1535
1559595956927,1618
1559595957000,1747
1559595957069,4003
1559595957152,1787
1559595957222,1635
1559595957289,1941
1559595957360,1825
1559595957443,1535
1559595957525,1595
1559595957600,1746
1559595957671,1808
1559595957746,1561
1559595957820,1936
1559595957910,1453
1559595957979,1615
1559595958094,1851
1559595958166,1715
1559595958237,1753
1559595958322,1520
1559595958393,1808
1559595958465,1535
1559595958538,1659
1559595958611,1747
1559595958686,1706
1559595958768,1663
1559595958835,4095
1559595958916,1778
1559595958989,1774
1559595959066,1820
1559595959149,1754
1559595959242,1567
1559595959313,1859
1559595959380,1563
1559595959465,1557
1559595959540,1681
1559595959631,1957
1559595959705,1729
1559595959786,1682
1559595959859,1777
1559595959934,1902
1559595960006,1603
1559595960081,1557
1559595960142,1635
1559595960224,1533
1559595960308,1622
1559595960380,1678
1559595960453,1850
1559595960536,1903
1559595960614,1849
1559595960692,1955
1559595960784,1680
1559595960850,1846
1559595960923,1606
1559595960995,1763
1559595961068,1781
1559595961141,1535
1559595961211,1984
1559595961285,1587
1559595961357,2704
1559595961440,1533
1559595961513,1905
1559595961584,1935
1559595961659,1572
1559595961732,1776
1559595961807,1646
1559595961877,1517
1559595961968,1758
1559595962042,1508
1559595962114,1907
1559595962188,1781
1559595962265,1609
1559595962345,1909
1559595962421,1634
1559595962493,1785
1559595962565,1718
1559595962639,1535
1559595962711,1821
1559595962786,1738
1559595962866,1809
1559595962940,4095
1559595963013,1806
1559595963087,1854
1559595963200,2131
1559595963285,1583
1559595963368,1847
1559595963441,1523
1559595963526,1642
1559595963604,1593
1559595963678,1570
1559595963753,1695
1559595963826,1772
1559595963900,1535
1559595963974,1847
1559595964051,2013
1559595964136,1518
1559595964209,1799
1559595964293,1680
1559595964366,1770
1559595964441,1520
1559595964508,1726
1559595964587,1849
1559595964678,4095
1559595964746,1680
1559595964817,1634
1559595964889,2067
1559595964982,1680
1559595965054,1623
1559595965142,1583
1559595965219,1535
1559595965293,1691
1559595965364,1754
1559595965467,1888
1559595965541,1627
1559595965624,1326
1559595965703,1866
1559595965778,1790
1559595965862,1871
1559595965935,1723
1559595966007,1826
1559595966079,1561
1559595966151,1712
1559595966224,1765
1559595966291,1502
1559595966359,1719
1559595966440,1663
1559595966526,1724
1559595966598,4095
1559595966674,1681
1559595966753,1691
1559595966826,2174
1559595966898,1587
1559595966972,1635
1559595967049,1838
1559595967124,1555
1559595967198,1717
1559595967272,1649
1559595967347,1987
1559595967421,1669
1559595967498,3771
1559595967571,1705
1559595967644,1937
1559595967722,2062
1559595967796,1585
1559595967869,1809
1559595967944,1775
1559595968017,1555
1559595968091,1758
1559595968172,1629
1559595968243,1998
1559595968317,1583
1559595968431,4095
1559595968498,1605
1559595968572,1758
1559595968646,2159
1559595968719,1534
1559595968791,1626
1559595968864,1724
1559595968944,1775
1559595969016,1488
1559595969088,1681
1559595969161,1711
1559595969242,1849
1559595969329,2583
1559595969411,1614
1559595969488,1915
1559595969560,2035
1559595969645,1931
1559595969724,1842
1559595969797,1670
1559595969871,1620
1559595969944,1840
1559595970026,1824
1559595970095,1775
1559595970176,1663
1559595970248,1681
1559595970320,1872
1559595970394,1583
1559595970468,1950
1559595970537,2058
1559595970619,1613
1559595970694,1522
1559595970775,1520
1559595970852,1707
1559595970933,1490
1559595971007,1872
1559595971082,1709
1559595971154,3808
1559595971229,1727
1559595971300,1805
1559595971373,1846
1559595971445,1815
1559595971519,1659
1559595971595,1579
1559595971665,1763
1559595971741,1743
1559595971814,1535
1559595971885,1984
1559595971958,1779
1559595972032,4095
1559595972106,1840
1559595972185,1945
1559595972257,1986
1559595972330,1602
1559595972403,1825
1559595972476,1600
1559595972547,1670
1559595972618,1730
1559595972690,1535
1559595972763,1969
1559595972835,1584
1559595972908,4095
1559595972980,1816
1559595973047,1722
1559595973114,1927
1559595973194,1654
1559595973268,1644
1559595973340,1775
1559595973411,1520
1559595973485,1787
1559595973557,1695
1559595973629,1719
1559595973712,1558
1559595973780,2890
1559595973860,1866
1559595973931,1658
1559595974020,2119
1559595974093,1570
1559595974164,1765
1559595974231,1534
1559595974308,1764
1559595974382,1840
1559595974453,1597
1559595974536,1669
1559595974603,4095
1559595974687,1600
1559595974760,1869
1559595974832,1803
1559595974907,1762
1559595974982,1817
1559595975074,1598
1559595975156,1659
1559595975225,1520
1559595975318,1854
1559595975390,1535
1559595975463,4095
1559595975540,1703
1559595975613,1669
1559595975688,1925
1559595975769,1587
1559595975841,1819
1559595975916,1670
1559595975987,1578
1559595976059,1815
1559595976130,1616
1559595976213,1535
1559595976285,2881
1559595976360,1817
1559595976433,1652
1559595976508,1853
1559595976590,1616
1559595976670,1572
1559595976748,1611
1559595976831,1509
1559595976904,1745
1559595976976,1934
1559595977047,1407
1559595977121,1645
1559595977190,1478
1559595977263,1872
1559595977334,2002
1559595977405,1563
1559595977478,1681
1559595977552,1635
1559595977624,1600
1559595977698,1732
1559595977763,1483
1559595977836,1459
1559595977907,1627
1559595977998,1882
1559595978069,1829
1559595978148,1856
1559595978220,1664
1559595978298,1702
1559595978372,1568
1559595978455,1762
1559595978530,1488
1559595978603,2810
1559595978686,1670
1559595978759,1870
1559595978841,2127
1559595978916,1767
1559595978988,1507
1559595979066,1557
1559595979139,1808
1559595979226,1661
1559595979300,1779
1559595979375,4095
1559595979456,1805
1559595979530,1649
1559595979603,2079
1559595979672,1902
1559595979751,1759
1559595979824,1616
1559595979898,1861
1559595979972,1680
1559595980048,1523
1559595980142,4095
1559595980216,1713
1559595980294,1782
1559595980366,1794
1559595980449,1474
1559595980521,1535
1559595980595,1715
1559595980668,1471
1559595980743,1711
1559595980823,1619
1559595980895,4095
1559595980968,1535
1559595981040,1744
1559595981114,1995
1559595981186,1669
1559595981267,1534
1559595981339,1775
1559595981407,1665
1559595981483,1599
1559595981564,1591
1559595981635,1891
1559595981706,1340
1559595981778,1887
1559595981847,1729
1559595981930,1776
1559595982005,1951
1559595982082,1639
1559595982156,1817
1559595982228,1573
1559595982303,1556
1559595982381,1660
1559595982463,1681
1559595982535,1971
1559595982606,1606
1559595982678,1583
1559595982750,1674
1559595982820,1812
1559595982889,2139
1559595982974,1787
1559595983046,1520
1559595983119,1786
1559595983192,1781
1559595983265,1523
1559595983338,1804
1559595983409,1661
1559595983481,1641
1559595983554,2415
1559595983628,1615
1559595983701,1649
1559595983777,2073
1559595983858,1849
1559595983931,1699
1559595984002,1506
1559595984070,1680
1559595984144,1495
1559595984218,1734
1559595984292,1840
1559595984366,1535
1559595984439,4095
1559595984513,1806
1559595984600,1939
1559595984684,1931
1559595984766,1621
1559595984840,1671
1559595984910,1864
1559595984985,1563
1559595985057,1758
1559595985129,1881
1559595985205,1584
1559595985277,4095
1559595985350,1777
1559595985422,1619
1559595985490,2103
1559595985563,1626
1559595985642,1492
1559595985713,1776
1559595985797,1695
1559595985870,1713
1559595985940,1631
1559595986013,1959
1559595986085,1559
1559595986158,4095
1559595986229,1792
1559595986304,1618
1559595986377,2016
1559595986452,1887
1559595986530,1715
1559595986605,1518
1559595986677,1675
1559595986749,1741
1559595986822,1561
1559595986895,1781
1559595986968,1767
1559595987044,1603
1559595987127,1735
1559595987206,2032
1559595987279,1717
1559595987351,1850
1559595987434,1773
1559595987508,1749
1559595987584,1533
1559595987655,1734
1559595987729,1859
1559595987812,1600
1559595987882,1711
1559595987965,1553
1559595988047,1969
1559595988122,1705
1559595988195,1645
1559595988269,1686
1559595988342,1490
1559595988425,1584
1559595988499,1712
1559595988578,1823
1559595988659,1518
1559595988733,1584
1559595988806,1887
1559595988882,1912
1559595988981,1535
1559595989054,1819
1559595989126,1803
1559595989194,1576
1559595989276,1673
1559595989354,1893
1559595989426,1775
1559595989498,2342
1559595989571,1858
1559595989655,1789
1559595989727,2079
1559595989793,1941
1559595989866,1687
1559595989943,1499
1559595990016,1683
1559595990089,1777
1559595990156,1566
1559595990232,1812
1559595990305,1691
1559595990380,1200
1559595990458,1606
1559595990532,1834
1559595990606,1831
1559595990689,2001
1559595990761,1520
1559595990828,1667
1559595990902,1595
1559595990976,1583
1559595991050,1853
1559595991124,1639
1559595991199,1727
1559595991272,1904
1559595991345,4095
1559595991431,1859
1559595991503,1939
1559595991596,1993
1559595991668,1862
1559595991747,1806
1559595991823,1663
1559595991897,1499
1559595991972,1755
1559595992047,1687
1559595992137,1631
1559595992221,1595
1559595992295,4095
1559595992375,1571
1559595992447,1850
1559595992533,1935
1559595992606,1711
1559595992691,1678
1559595992759,1687
1559595992840,1610
1559595992914,1598
1559595992988,1940
1559595993071,1701
1559595993140,1317
1559595993213,1722
1559595993287,1877
1559595993361,2074
1559595993444,1842
1559595993518,1739
1559595993592,1763
1559595993676,1871
1559595993754,1840
1559595993828,1871
1559595993903,1342
1559595993970,1493
1559595994047,1769
1559595994133,1840
1559595994222,1563
1559595994308,1663
1559595994371,1406
1559595994445,1607
1559595994530,1799
1559595994602,1599
1559595994679,3446
1559595994756,1618
1559595994817,1802
1559595994900,1903
1559595994974,1648
1559595995063,1863
1559595995137,1655
1559595995211,1813
1559595995296,1776
1559595995369,1783
1559595995452,1795
1559595995535,1689
1559595995610,2000
1559595995682,2014
1559595995768,1553
1559595995853,1514
1559595995926,1734
1559595996001,1594
1559595996075,1287
1559595996149,1668
1559595996223,1689
1559595996298,1645
1559595996376,1749
1559595996455,1456
1559595996531,1622
1559595996619,1607
1559595996696,1527
1559595996772,1675
1559595996858,1637
1559595996933,3869
1559595997011,1833
1559595997092,1961
1559595997166,2207
1559595997241,1905
1559595997315,1642
1559595997388,1855
1559595997471,1690
1559595997546,1856
1559595997620,1781
1559595997696,1561
1559595997766,1377
1559595997840,1734
1559595997917,1520
1559595997992,1712
1559595998077,1653
1559595998142,1521
1559595998217,1507
1559595998293,1449
1559595998402,1643
1559595998475,1535
1559595998549,1791
1559595998628,1702
1559595998704,1484
1559595998778,1711
1559595998853,1778
1559595998929,2079
1559595999001,1899
1559595999082,1854
1559595999156,1690
1559595999231,1675
1559595999312,1669
1559595999387,1919
1559595999463,1819
1559595999539,1333
1559595999612,1597
1559595999686,1843
1559595999761,1967
1559595999861,1696
1559595999939,1617
1559596000035,1489
1559596000108,1610
1559596000182,1938
1559596000258,1674
1559596000334,2276
1559596000410,1625
1559596000484,1868
1559596000555,2006
1559596000643,1786
1559596000719,1754
1559596000806,1782
1559596000883,1793
1559596000975,1651
1559596001056,1639
1559596001131,4095
1559596001206,1701
1559596001282,1862
1559596001394,1930
1559596001461,1659
1559596001536,1631
1559596001612,1527
1559596001680,1727
1559596001753,1589
1559596001830,1639
1559596001906,1893
1559596001989,1424
1559596002085,1724
1559596002159,1856
1559596002236,1795
1559596002314,1681
1559596002391,1628
1559596002463,1791
1559596002538,1783
1559596002614,1619
1559596002690,1654
1559596002761,1629
1559596002836,4095
1559596002912,1521
1559596002987,1636
1559596003061,1808
1559596005685,1617
1559596005759,1853
1559596005835,1943
1559596005909,1635
1559596005986,1386
1559596006061,1788
1559596006138,1851
1559596006215,1823
1559596006297,1721
1559596006374,1656
1559596006442,1570
1559596006518,1744
1559596006593,1723
1559596006663,1578
1559596006738,4095
1559596006812,1602
1559596006889,1633
1559596006960,1815
1559596007047,1615
1559596007114,1743
1559596007199,1817
1559596007270,1776
1559596007354,1915
1559596007432,1633
1559596007507,1566
1559596007582,1679
1559596007659,1951
1559596007726,1911
1559596007801,1664
1559596007878,1776
1559596007953,1650
1559596008027,1616
1559596008097,1636
1559596008172,1765
1559596008250,1555
1559596008328,1747
1559596008414,1915
1559596008499,1775
1559596008585,1566
1559596008663,1714
1559596008735,1775
1559596008829,1783
1559596008927,1573
1559596009016,1814
1559596009100,1816
1559596009176,1930
1559596009262,1727
1559596009342,1667
1559596009419,1783
1559596009499,1762
1559596009568,1744
1559596009642,1793
1559596009722,1647
1559596009806,4095
1559596009881,1686
1559596009960,1830
1559596010045,1745
1559596010119,1678
1559596010206,1594
1559596010281,1770
1559596010347,1650
1559596010424,1714
1559596010500,1994
1559596010578,1808
1559596010650,4095
1559596010736,1848
1559596010814,1833
1559596010891,1905
1559596010968,1597
1559596011044,1638
1559596011122,1696
1559596011199,1698
1559596011274,1721
1559596011355,1650
1559596011431,2582
1559596011507,1616
1559596011577,1718
1559596011668,1968
1559596011750,1667
1559596011827,1697
1559596011910,1767
1559596011988,1638
1559596012062,1680
1559596012141,1915
1559596012228,1461
1559596012301,1770
1559596012376,1803
1559596012452,1858
1559596012535,1780
1559596012629,1580
1559596012705,1578
1559596012781,1596
1559596012858,1762
1559596012932,1743
1559596013008,2775
1559596013085,1505
1559596013162,1663
1559596013239,1919
1559596013316,1814
1559596013391,1679
1559596013465,1610
1559596013540,1676
1559596013627,1712
1559596013702,1645
1559596013780,4095
1559596013863,1600
1559596013933,1909
1559596014020,2034
1559596014101,1665
1559596014179,1789
1559596014253,1837
1559596014340,1749
1559596014416,1758
1559596014504,4095
1559596014594,1679
1559596014694,2006
1559596014779,1776
1559596014857,1723
1559596014930,1744
1559596015024,1568
1559596015101,1835
1559596015187,1607
1559596015264,1318
1559596015340,1670
1559596015415,1878
1559596015491,2021
1559596015567,1603
1559596015643,1579
1559596015712,1694
1559596015788,1615
1559596015865,1711
1559596015942,1650
1559596016017,4095
1559596016095,1795
1559596016172,1856
1559596016247,1968
1559596016321,1643
1559596016398,1750
1559596016474,1780
1559596016551,1693
1559596016628,1648
1559596016705,1568
1559596016777,1733
1559596016863,1451
1559596016931,1778
1559596017001,1627
1559596017087,1840
1559596017172,1933
1559596017251,1699
1559596017329,1626
1559596017407,1735
1559596017483,1501
1559596017560,1584
1559596017638,1587
1559596017723,1187
1559596017798,1700
1559596017872,1809
1559596017949,1953
1559596018017,1795
1559596018091,1749
1559596018174,1785
1559596018262,1648
1559596018334,1674
1559596018419,1712
1559596018495,1346
1559596018570,1808
1559596018641,1671
1559596018716,1894
1559596018794,1893
1559596018870,1685
1559596018952,1582
1559596019029,1673
1559596019108,1569
1559596019185,1761
1559596019253,1554
1559596019331,1293
1559596019408,1635
1559596019477,1679
1559596019564,1785
1559596019632,1597
1559596019706,1664
1559596019783,1600
1559596019858,1627
1559596019934,1823
1559596020013,1790
1559596020097,4095
1559596020182,1639
1559596020258,1759
1559596020352,1997
1559596020430,1742
1559596020509,1751
1559596020590,1787
1559596020663,1667
1559596020740,1589
1559596020816,1844
1559596020893,1789
1559596020973,1782
1559596021050,1731
1559596021133,1894
1559596021214,1865
1559596021292,1751
1559596021367,1645
1559596021446,1593
1559596021520,1613
1559596021603,1597
1559596021679,1763
1559596021756,1505
1559596021831,1945
1559596021905,1790
1559596021980,1747
1559596022057,1847
1559596022131,1795
1559596022207,1737
1559596022276,1645
1559596022363,1655
1559596022438,1648
1559596022515,1981
1559596022591,1843
1559596022677,1392
1559596022754,1813
1559596022833,1886
1559596022911,1901
1559596022980,1657
1559596023071,1718
1559596023149,1701
1559596023221,1647
1559596023307,1664
1559596023393,1797
1559596023471,1286
1559596023547,1699
1559596023623,1626
1559596023701,1724
1559596023775,1717
1559596023853,1747
1559596023930,1799
1559596023998,1703
1559596024075,1741
1559596024152,1776
1559596024228,1965
1559596024304,1691
1559596024379,1385
1559596024454,1712
1559596024529,1921
1559596024615,1902
1559596024695,1675
1559596024771,1814
1559596024848,1791
1559596024922,1657
1559596024998,1602
1559596025067,1838
1559596025145,1472
1559596025219,1711
1559596025296,1694
1559596025372,1874
1559596025451,1899
1559596025526,1695
1559596025604,1642
1559596025671,1763
1559596025747,1681
1559596025824,1662
1559596025908,1760
1559596025985,4095
1559596026060,1590
1559596026129,1730
1559596026208,1891
1559596026297,1649
1559596026372,1795
1559596026448,1796
1559596026525,1701
1559596026599,1630
1559596026674,1741
1559596026759,4095
1559596026834,1729
1559596026911,1793
1559596027008,2005
1559596027084,1606
1559596027166,1719
1559596027242,1623
1559596027321,1695
1559596027396,1616
1559596027472,4095
1559596027552,1731
1559596027624,1874
1559596027700,1814
1559596027776,1677
1559596027861,1625
1559596027936,1670
1559596028014,1755
1559596028098,1616
1559596028166,1294
1559596028243,1681
1559596028311,1621
1559596028394,1717
1559596028483,1711
1559596028561,1704
1559596028632,1734
1559596028708,1735
1559596028792,1783
1559596028872,1743
1559596028956,4095
1559596029026,1733
1559596029103,1652
1559596029177,1762
1559596029254,1663
1559596029330,1764
1559596029400,1754
1559596029486,1713
1559596029562,1639
1559596029636,1744
1559596029714,1693
1559596029793,4095
1559596029866,1806
1559596029941,1773
1559596030019,1883
1559596030093,1706
1559596030168,1798
1559596030245,1744
1559596030322,1638
1559596030393,1787
1559596030478,1603
1559596030556,1407
1559596030637,1643
1559596030716,1889
1559596030799,1808
1559596030874,1646
1559596030942,1691
1559596031027,1775
1559596031105,1728
1559596031179,1677
1559596031266,1459
1559596031382,1666
1559596031459,1699
1559596031537,1921
1559596031632,1671
1559596031704,1749
1559596031789,1762
1559596031865,1712
1559596031941,1666
1559596032018,1192
1559596032092,1803
1559596032167,1803
1559596032243,1919
1559596032314,1872
1559596032389,1760
1559596032464,1717
1559596032540,1616
1559596032616,1624
1559596032701,1728
1559596032778,1631
1559596032855,4095
1559596032931,1749
1559596033018,1693
1559596033094,1947
1559596033172,1794
1559596033255,1607
1559596033333,1739
1559596033415,1639
1559596033492,1744
1559596033576,1808
1559596033650,1721
1559596033739,1341
1559596033825,1785
1559596033903,1831
1559596033971,1776
1559596034046,1753
1559596034131,1773
1559596034207,1809
1559596034283,1685
1559596034513,1699
1559596034588,4095
1559596034665,1770
1559596034740,1755
1559596034814,1911
1559596034893,1770
1559596034968,1794
1559596035053,1718
1559596035129,1750
1559596035206,1757
1559596035276,1675
1559596035372,1750
1559596035448,1739
1559596035516,1676
1559596035595,1701
1559596035672,1936
1559596035750,1926
1559596035826,1778
1559596035895,1631
1559596035972,1723
1559596036048,1747
1559596036124,1724
1559596036193,1696
1559596036273,1234
1559596036350,1778
1559596036430,1806
1559596036515,1855
1559596036593,1648
1559596036675,1635
1559596036761,1661
1559596036838,1575
1559596036914,1615
1559596036991,1747
1559596037067,1321
1559596037145,1744
1559596037221,1743
1559596037318,1935
1559596037393,1662
1559596037479,1616
1559596037559,1630
1559596037640,1643
1559596037709,1780
1559596037789,1605
1559596037865,4095
1559596037944,1693
1559596038019,1740
1559596038097,1863
1559596038172,1623
1559596038254,1643
1559596038335,1584
1559596038418,1570
1559596038490,1783
1559596038575,1594
1559596038652,2649
1559596038728,1712
1559596038804,1869
1559596038882,1937
1559596038957,1599
1559596039033,1606
1559596039112,1760
1559596039196,1590
1559596039281,1614
1559596039357,1722
1559596039435,1356
1559596039511,1793
1559596039588,1848
1559596039665,1984
1559596039742,1833
1559596039818,1595
1559596039906,1803
1559596039986,1744
1559596040064,1727
1559596040144,1730
1559596040222,1641
1559596040292,1819
1559596040384,1726
1559596040460,1755
1559596040536,1910
1559596040613,1681
1559596040689,1738
1559596040765,1732
1559596040840,1636
1559596040922,1659
1559596040997,1681
1559596041074,1449
1559596041159,1644
1559596041242,1731
1559596041318,1867
1559596041395,1680
1559596041474,1586
1559596041568,1765
1559596041638,1664
1559596041732,1629
1559596041808,1776
1559596041886,1767
1559596041961,3440
1559596042036,1603
1559596042112,1750
1559596042192,1979
1559596042261,1862
1559596042338,1595
1559596042410,1650
1559596042492,1616
1559596042574,1725
1559596042650,1714
1559596042725,1806
1559596042802,1722
1559596042881,1902
1559596042949,1597
1559596043025,1841
1559596043099,1938
1559596043188,1622
1559596043275,1648
1559596043360,1629
1559596043436,1564
1559596043504,1716
1559596043581,1617
1559596043658,1609
1559596043738,1693
1559596043814,1344
1559596043891,1876
1559596043967,1845
1559596044044,1976
1559596044120,1915
1559596044197,1610
1559596044274,1635
1559596044354,1744
1559596044436,1610
1559596044506,1712
1559596044582,1770
1559596044659,1744
1559596044734,1750
1559596044811,4095
1559596044885,1749
1559596044963,1984
1559596045040,1939
1559596045123,1702
1559596045192,1642
1559596045269,1840
1559596045346,1746
1559596045423,1721
1559596045507,1535
1559596045586,4095
1559596045667,1744
1559596045739,1661
1559596045824,2118
1559596045908,1509
1559596045983,1575
1559596046062,1729
1559596046135,1507
1559596046212,1789
1559596046289,1698
1559596046361,1515
1559596046448,1787
1559596046530,1929
1559596046607,2034
1559596046683,1808
1559596046759,1659
1559596046833,1661
1559596046910,1717
1559596046986,1844
1559596047063,1888
1559596047141,1519
1559596047218,1833
1559596047293,1680
1559596047370,1968
1559596047446,2061
1559596047524,1751
1559596047599,1612
1559596047675,1490
1559596047749,1630
1559596047824,1825
1559596047899,1566
1559596047975,4095
1559596048049,1585
1559596048129,1610
1559596048213,1881
1559596048290,1652
1559596048364,1746
1559596048452,1699
1559596048520,1776
1559596048606,1808
1559596048684,1997
1559596048760,1736
1559596048832,4095
1559596048926,1887
1559596049002,2001
1559596049079,2055
1559596049156,1629
1559596049234,1621
1559596049310,1710
1559596049385,1776
1559596049463,1728
1559596049538,1610
1559596049615,1531
1559596049692,2810
1559596049769,1590
1559596049841,1791
1559596049931,1970
1559596050005,1798
1559596050077,1744
1559596050163,1755
1559596050237,1757
1559596050321,1744
1559596050403,1892
1559596050478,1711
1559596050550,4095
1559596050633,1649
1559596050710,1853
1559596050786,2218
1559596050852,1785
1559596050929,1733
1559596051002,1858
1559596051095,1555
1559596051169,1676
1559596051259,1838
1559596051342,1833
1559596051419,1301
1559596051495,1552
1559596051573,1650
1559596051648,1975
1559596051721,1677
1559596051809,1575
1559596051894,1434
1559596051971,1456
1559596052039,1695
1559596052115,1458
1559596052195,1507
1559596052276,1627
1559596052354,1790
1559596052432,1774
1559596052507,1714
1559596052583,1862
1559596052660,1819
1559596052740,2013
1559596052806,1685
1559596052881,4095
1559596052960,1773
1559596053042,1953
1559596053120,2032
1559596053203,1638
1559596053282,1820
1559596053358,1703
1559596053434,1598
1559596053506,1614
1559596053589,1115
1559596053666,1707
1559596053743,1733
1559596053821,1904
1559596053897,1670
1559596053974,1473
1559596054049,1511
1559596054143,1721
1559596054220,1666
1559596054305,1746
1559596054381,1413
1559596054459,1649
1559596054537,1655
1559596054621,2059
1559596054703,1889
1559596054780,1781
1559596054855,1662
1559596054936,1649
1559596055026,1759
1559596055102,2009
1559596055179,1729
1559596055259,2514
1559596055330,1616
1559596055417,1825
1559596055503,1968
1559596055573,1776
1559596055650,1616
1559596055732,1560
1559596055806,1646
1559596055912,1616
1559596055991,1631
1559596056066,3341
1559596056140,1760
1559596056225,1795
1559596056302,2032
1559596056380,1758
1559596056453,1603
1559596056530,1633
1559596056600,1755
1559596056676,1663
1559596056762,1936
1559596056837,1774
1559596056917,4095
1559596056994,1627
1559596057077,1791
1559596057153,1814
1559596057230,1641
1559596057307,1735
1559596057380,1773
1559596057466,1721
1559596057543,1788
1559596057613,1769
1559596057691,1439
1559596057770,1595
1559596057855,1679
1559596057926,1751
1559596058013,1633
1559596058087,1617
1559596058172,1596
1559596058248,1654
1559596058316,1685
1559596058395,1780
1559596058468,1675
1559596058541,1554
1559596058610,1716
1559596058686,1841
1559596058763,2011
1559596058840,1803
1559596058917,1690
1559596058998,1703
1559596059080,1712
1559596059157,1744
1559596059232,1478
1559596059301,1709
1559596059378,1687
1559596059453,1739
1559596059539,1936
1559596059615,1616
1559596059693,1574
1559596059776,1674
1559596059854,1771
1559596059928,1612
1559596060015,1634
1559596060090,1601
1559596060169,1786
1559596060244,1956
1559596060321,1794
1559596060394,1686
1559596060471,1593
1559596060545,1862
1559596060625,1719
1559596060701,1302
1559596060779,1749
1559596060855,1755
1559596060931,1858
1559596061007,1590
1559596061082,1711
1559596061159,1769
1559596061235,1711
1559596061303,1721
1559596061379,2132
1559596061455,1663
1559596061540,1842
1559596061628,1934
1559596061707,1662
1559596061784,1723
1559596061861,1815
1559596061935,1715
1559596062014,1793
1559596062084,1648
1559596062169,1639
1559596062237,1664
1559596062313,1719
1559596062389,1840
1559596062469,1579
1559596062548,1535
1559596062629,1584
1559596062711,1535
1559596062791,1661
1559596062874,1223
1559596062951,1600
1559596063025,1674
1559596063113,1838
1559596063195,1889
1559596063290,1606
1559596063367,1642
1559596063445,1787
1559596063521,1819
1559596063593,1931
1559596063688,1451
1559596063762,1746
1559596063838,1822
1559596063907,1893
1559596063978,1873
1559596064065,1630
1559596064142,1587
1559596064227,1581
1559596064412,1808
1559596064491,1637
1559596064574,4095
1559596064643,1619
1559596064731,1755
1559596064827,1840
1559596064896,1741
1559596064971,1567
1559596065057,1776
1559596065134,1691
1559596065230,1535
1559596065308,1599
1559596065384,1664
1559596065464,1891
1559596065540,1845
1559596065617,1790
1559596065687,1712
1559596065771,1808
1559596065848,1893
1559596065925,1680
1559596066000,1765
1559596066077,1776
1559596066154,1671
1559596066229,1584
1559596066306,1615
1559596066384,1690
1559596066458,1965
1559596066543,1765
1559596066623,2239
1559596066698,1839
1559596066775,1896
1559596066850,1977
1559596066929,1616
1559596067006,1650
1559596067076,1803
1559596067153,1657
1559596067229,1583
1559596067383,1723
1559596067459,1778
1559596067535,4095
1559596067611,1622
1559596067683,1666
1559596067760,2109
1559596067835,1840
1559596067914,1595
1559596067990,1574
1559596068065,1535
1559596068160,1744
1559596068240,1783
1559596068318,1827
1559596068396,1808
1559596068466,1719
1559596068542,1776
1559596068620,2027
1559596068698,1916
1559596068774,1713
1559596068853,1657
1559596068927,1584
1559596068998,1669
1559596069083,1714
1559596069160,1806
1559596069238,1845
1559596069321,2133
1559596069395,1807
1559596069474,1823
1559596069551,1894
1559596069628,1687
1559596069707,1571
1559596069782,1658
1559596069858,1756
1559596069937,1732
1559596070014,1664
1559596070090,1564
1559596070167,1725
1559596070242,1716
1559596070318,1605
1559596070394,1783
1559596070462,1775
1559596070548,1959
1559596070623,1680
1559596070700,1777
1559596070778,1835
1559596070854,1766
1559596070930,1648
1559596070999,1817
1559596071068,2001
1559596071145,1703
1559596071220,4095
1559596071298,1803
1559596071374,1902
1559596071467,1926
1559596071542,1669
1559596071619,1731
1559596071696,1744
1559596071772,1639
1559596071851,1614
1559596071932,1681
1559596072008,1697
1559596072087,1319
1559596072165,1747
1559596072240,1799
1559596072315,2031
1559596072395,2035
1559596072478,1774
1559596072555,1806
1559596072623,1611
1559596072699,1755
1559596072776,1808
1559596072851,1680
1559596072925,2745
1559596073013,1687
1559596073089,1699
1559596073165,1985
1559596073239,1779
1559596073320,1711
1559596073396,1792
1559596073473,1694
1559596073554,1619
1559596073631,1780
1559596073707,1591
1559596073789,1618
1559596073867,1584
1559596073941,1855
1559596074018,2059
1559596074095,1699
1559596074178,1685
1559596074255,1754
1559596074324,1647
1559596074411,1586
1559596074494,1901
1559596074592,1222
1559596074668,1629
1559596074756,1873
1559596074844,1968
1559596074918,1702
1559596075002,1611
1559596075077,1761
1559596075155,1733
1559596075217,1586
1559596075307,1613
1559596075384,1134
1559596075470,1610
1559596075549,1680
1559596075626,1883
1559596075702,1676
1559596075779,1623
1559596075856,1738
1559596075935,1680
1559596076028,1776
1559596076105,1535
1559596076182,1787
1559596076260,1744
1559596076336,1891
1559596076406,1998
1559596076481,1632
1559596076558,1721
1559596076635,1808
1559596076711,1734
1559596076796,1820
1559596076873,1840
1559596076949,1915
1559596077027,1714
1559596077114,1890
1559596077188,1728
1559596077269,1804
1559596077351,2015
1559596077428,1668
1559596077504,1568
1559596077578,1680
1559596077654,1745
1559596077730,1658
1559596077807,1570
1559596077887,1589
1559596077955,1823
1559596078032,1808
1559596078109,2218
1559596078187,1626
1559596078264,1681
1559596078339,1962
1559596078416,1930
1559596078490,1794
1559596078567,1643
1559596078636,1598
1559596078725,1535
1559596078805,1535
1559596078889,1618
1559596078963,1731
1559596079042,1619
1559596079117,2489
1559596079193,1787
1559596079270,1867
1559596079348,2034
1559596079424,1662
1559596079502,1697
1559596079577,1808
1559596079654,1820
1559596079722,1729
1559596079808,1787
1559596079885,1637
1559596079958,4095
1559596080037,1751
1559596080112,1862
1559596080188,1940
1559596080265,1618
1559596080373,1693
1559596080451,1669
1559596080528,1570
1559596080608,1512
1559596080685,1520
1559596080758,1733
1559596080834,1558
1559596080909,1831
1559596080990,1680
1559596081065,1806
1559596081139,1895
1559596081217,1835
1559596081294,1841
1559596081368,1783
1559596081437,1643
1559596081515,1809
1559596081585,1852
1559596081686,1811
1559596081763,1417
1559596081840,1840
1559596081919,1679
1559596081997,1885
1559596082073,1969
1559596082143,1680
1559596082220,1495
1559596082298,1617
1559596082374,1669
1559596082451,1629
1559596082528,1575
1559596082603,1520
1559596082678,1117
1559596082746,1595
1559596082822,1634
1559596082891,1991
1559596082978,1952
1559596083048,1855
1559596083137,1787
1559596083213,1854
1559596083290,1850
1559596083369,1776
1559596083438,1830
1559596083524,1644
1559596083593,1741
1559596083673,1799
1559596083751,1893
1559596083828,1938
1559596083906,1554
1559596083982,1468
1559596084057,1535
1559596084126,1654
1559596084197,1504
1559596084283,1535
1559596084359,1584
1559596084433,2923
1559596084510,1719
1559596084587,1663
1559596084663,1851
1559596084738,1728
1559596084808,1687
1559596084885,1638
1559596084962,1650
1559596085039,1666
1559596085116,1804
1559596085185,1859
1559596085260,1195
1559596085338,1669
1559596085413,1712
1559596085499,1851
1559596085576,1805
1559596085652,1770
1559596085729,1744
1559596085807,1584
1559596085890,1691
1559596085968,1730
1559596086045,1574
1559596086125,4095
1559596086201,1527
1559596086276,1670
1559596086352,2071
1559596086427,1733
1559596086505,1583
1559596086585,1622
1559596086663,1597
1559596086737,1633
1559596086818,1659
1559596086890,1272
1559596086971,1793
1559596087056,1773
1559596087133,2062
1559596087206,1891
1559596087283,1655
1559596087358,1665
1559596087435,1731
1559596087513,1782
1559596087589,1855
1559596087661,1665
1559596087757,4075
1559596087833,1680
1559596087911,1798
1559596087988,1972
1559596088069,1712
1559596088144,1535
1559596088218,1521
1559596088291,1602
1559596088367,1826
1559596088443,1584
1559596088519,4095
1559596088597,1664
1559596088674,1850
1559596088750,2091
1559596088818,1688
1559596088893,1840
1559596088969,1869
1559596089047,1744
1559596089123,1696
1559596089198,1805
1559596089276,1729
1559596089354,4095
1559596089442,1586
1559596089518,1674
1559596089595,1933
1559596089673,1723
1559596089746,1684
1559596089825,1605
1559596089894,1501
1559596089979,1531
1559596090055,1766
1559596090132,1726
1559596090209,4095
1559596090285,1645
1559596090361,1616
1559596090437,1802
1559596090515,1682
1559596090591,1756
1559596090667,1748
1559596090743,1653
1559596090830,1802
1559596090906,1786
1559596090984,1761
1559596091059,1302
1559596091157,1892
1559596091229,1797
1559596091317,1903
1559596091390,1875
1559596091476,1678
1559596091551,1764
1559596091627,1766
1559596091706,1696
1559596091775,1593
1559596091862,1726
1559596091933,1559
1559596092018,2378
1559596092094,1642
1559596092170,1866
1559596092246,2015
1559596092324,1620
1559596092401,1670
1559596092478,1599
1559596092555,1679
1559596092632,1818
1559596092692,1680
1559596092760,1858
1559596092832,1215
1559596092909,1858
1559596092980,1855
1559596093056,1778
1559596093133,1903
1559596093208,1815
1559596093286,1761
1559596093363,1616
1559596093448,1672
1559596093533,1815
1559596093608,1771
1559596093682,4095
1559596093752,1535
1559596093837,1648
1559596093914,1883
1559596093990,1777
1559596094068,1791
1559596094147,1786
1559596094224,1694
1559596094298,1674
1559596094373,1653
1559596094449,4095
1559596094527,1772
1559596094594,1752
1559596094671,1952
1559596094747,1872
1559596094832,1675
1559596094906,1682
1559596094991,1707
1559596095069,1811
1559596095145,1744
1559596095231,4095
1559596095309,1754
1559596095384,1777
1559596095471,1937
1559596095547,1785
1559596095628,1775
1559596095705,1750
1559596095789,1714
1559596095866,1793
1559596095940,1328
1559596096027,1809
1559596096104,1845
1559596096173,1970
1559596096260,1809
1559596096335,1571
1559596096412,1766
1559596096489,1808
1559596096566,1979
1559596096642,1702
1559596096714,1275
1559596096813,1648
1559596096913,2139
1559596097003,1751
1559596097080,1535
1559596097158,1553
1559596097260,1564
1559596097339,1420
1559596097417,2053
1559596097494,1554
1559596097571,1677
1559596097648,1980
1559596097732,1617
1559596097805,1591
1559596097891,1687
1559596097967,1809
1559596098044,1861
1559596098119,1648
1559596098191,1776
1559596098269,1811
1559596098347,2013
1559596098425,2064
1559596098501,1751
1559596098586,1646
1559596098673,1641
1559596098752,1733
1559596098826,1744
1559596098904,2017
1559596098977,1555
1559596099067,1776
1559596099152,1909
1559596099230,1660
1559596099309,1655
1559596099388,1729
1559596099465,1605
1559596099553,1621
1559596099632,1650
1559596099708,3103
1559596099786,1751
1559596099862,1757
1559596099940,1946
1559596100013,1645
1559596100089,1685
1559596100168,1721
1559596100357,1646
1559596100429,1769
1559596100504,2016
